XDAC V1.4 Datafile V1
"Fe_lepidocrocite.000" created on 11/3/2011 at 1:10:04 PM on X-23A2
Diffraction element= Si (311).  Ring energy= 2.80 GeV
E0= 7112.00
NUM_REGIONS= 4
SRB= -200 -20 30 60 15k
SRSS= 10 0.25 0.05k 0.05k
SPP= 0.5 0.5 0.5 0.125k
Settling time= 0.10


Offsets= 0.00 37.25 86.25 0.00
Gains= 8.00 8.00 9.00 1.00
gamma-FeOOH on tape


--------------------------------------------------------------------------------
        Energy            I0            It            Ir       IntTime
    6912.00137     5004.0000      726.3750     1401.8750        0.5000
    6921.99811     5006.0000      734.3750     1419.8750        0.5000
    6931.99952     5031.0000      745.3750     1446.8750        0.5000
    6942.00100     5041.0000      754.3750     1466.8750        0.5000
    6951.99793     5055.0000      764.3750     1492.8750        0.5000
    6961.99916     5059.0000      773.3750     1514.8750        0.5000
    6972.00005     5047.0000      780.3750     1530.8750        0.5000
    6982.00050     5046.0000      788.3750     1551.8750        0.5000
    6992.00035     5052.0000      799.3750     1577.8750        0.5000
    7001.99948     5035.0000      805.3750     1591.8750        0.5000
    7011.99777     5037.0000      813.3750     1611.8750        0.5000
    7021.99962     5018.0000      818.3750     1624.8750        0.5000
    7032.00039     5018.0000      827.3750     1644.8750        0.5000
    7041.99992     5010.0000      833.3750     1657.8750        0.5000
    7051.99811     5007.0000      840.3750     1676.8750        0.5000
    7061.99940     5021.0000      851.3750     1703.8750        0.5000
    7071.99909     5043.0000      863.3750     1737.8750        0.5000
    7082.00166     5048.0000      873.3750     1760.8750        0.5000
    7091.99780     5037.0000      879.3750     1773.8750        0.5000
    7092.25090     5039.0000      880.3750     1777.8750        0.5000
    7092.49942     5031.0000      879.3750     1774.8750        0.5000
    7092.74794     5033.0000      879.3750     1774.8750        0.5000
    7093.00108     5040.0000      880.3750     1778.8750        0.5000
    7093.24962     5026.0000      878.3750     1773.8750        0.5000
    7093.49818     5031.0000      879.3750     1777.8750        0.5000
    7093.75135     5031.0000      880.3750     1778.8750        0.5000
    7093.99992     5037.0000      881.3750     1780.8750        0.5000
    7094.24851     5034.0000      881.3750     1779.8750        0.5000
    7094.50171     5021.0000      879.3750     1775.8750        0.5000
    7094.75031     5045.0000      883.3750     1783.8750        0.5000
    7094.99893     5032.0000      881.3750     1779.8750        0.5000
    7095.25216     5024.0000      880.3750     1777.8750        0.5000
    7095.50080     5017.0000      879.3750     1775.8750        0.5000
    7095.74944     5032.0000      882.3750     1780.8750        0.5000
    7095.99810     5022.0000      880.3750     1777.8750        0.5000
    7096.25137     5028.0000      881.3750     1778.8750        0.5000
    7096.50005     5039.0000      883.3750     1783.8750        0.5000
    7096.74874     5032.0000      883.3750     1783.8750        0.5000
    7097.00204     5048.0000      885.3750     1787.8750        0.5000
    7097.25075     5032.0000      883.3750     1782.8750        0.5000
    7097.49947     5029.0000      883.3750     1783.8750        0.5000
    7097.74820     5015.0000      880.3750     1777.8750        0.5000
    7098.00154     5023.0000      882.3750     1780.8750        0.5000
    7098.25029     5036.0000      884.3750     1786.8750        0.5000
    7098.49905     5026.0000      883.3750     1782.8750        0.5000
    7098.74782     5034.0000      884.3750     1785.8750        0.5000
    7099.00121     5025.0000      883.3750     1784.8750        0.5000
    7099.25000     5027.0000      884.3750     1784.8750        0.5000
    7099.49880     5034.0000      886.3750     1787.8750        0.5000
    7099.75221     5027.0000      884.3750     1784.8750        0.5000
    7100.00103     5037.0000      886.3750     1786.8750        0.5000
    7100.24986     5034.0000      885.3750     1785.8750        0.5000
    7100.49871     5027.0000      884.3750     1787.8750        0.5000
    7100.75216     5023.0000      884.3750     1785.8750        0.5000
    7101.00103     5026.0000      885.3750     1787.8750        0.5000
    7101.24990     5019.0000      884.3750     1784.8750        0.5000
    7101.49878     5029.0000      886.3750     1789.8750        0.5000
    7101.75228     5038.0000      887.3750     1791.8750        0.5000
    7102.00118     5014.0000      883.3750     1783.8750        0.5000
    7102.25009     5027.0000      886.3750     1787.8750        0.5000
    7102.49901     5027.0000      886.3750     1788.8750        0.5000
    7102.74795     5020.0000      884.3750     1786.8750        0.5000
    7103.00150     5023.0000      885.3750     1787.8750        0.5000
    7103.25045     5032.0000      887.3750     1789.8750        0.5000
    7103.49941     5027.0000      887.3750     1788.8750        0.5000
    7103.74839     5020.0000      886.3750     1786.8750        0.5000
    7104.00198     5027.0000      887.3750     1789.8750        0.5000
    7104.25098     5021.0000      887.3750     1789.8750        0.5000
    7104.49998     5030.0000      888.3750     1790.8750        0.5000
    7104.74899     5027.0000      888.3750     1788.8750        0.5000
    7104.99802     5031.0000      889.3750     1789.8750        0.5000
    7105.25166     5033.0000      889.3750     1790.8750        0.5000
    7105.50071     5033.0000      889.3750     1791.8750        0.5000
    7105.74976     5028.0000      890.3750     1788.8750        0.5000
    7105.99883     5028.0000      889.3750     1788.8750        0.5000
    7106.24790     5031.0000      890.3750     1790.8750        0.5000
    7106.50160     5021.0000      888.3750     1784.8750        0.5000
    7106.75069     5022.0000      888.3750     1784.8750        0.5000
    7106.99980     5019.0000      888.3750     1782.8750        0.5000
    7107.24891     5019.0000      888.3750     1783.8750        0.5000
    7107.49804     5026.0000      889.3750     1784.8750        0.5000
    7107.75179     5033.0000      891.3750     1785.8750        0.5000
    7108.00093     5017.0000      889.3750     1781.8750        0.5000
    7108.25009     5014.0000      888.3750     1777.8750        0.5000
    7108.49926     5027.0000      891.3750     1780.8750        0.5000
    7108.74843     5025.0000      890.3750     1778.8750        0.5000
    7109.00223     5023.0000      890.3750     1775.8750        0.5000
    7109.25143     5027.0000      890.3750     1775.8750        0.5000
    7109.50064     5018.0000      889.3750     1769.8750        0.5000
    7109.74985     5003.0000      886.3750     1761.8750        0.5000
    7109.99908     5013.0000      888.3750     1761.8750        0.5000
    7110.24832     5013.0000      889.3750     1757.8750        0.5000
    7110.50218     5006.0000      888.3750     1749.8750        0.5000
    7110.75144     5015.0000      889.3750     1744.8750        0.5000
    7111.00071     5027.0000      891.3750     1737.8750        0.5000
    7111.24998     5015.0000      889.3750     1720.8750        0.5000
    7111.49927     5012.0000      888.3750     1703.8750        0.5000
    7111.74857     5005.0000      887.3750     1671.8750        0.5000
    7111.99788     5015.0000      889.3750     1638.8750        0.5000
    7112.25181     5011.0000      888.3750     1590.8750        0.5000
    7112.50114     5012.0000      888.3750     1532.8750        0.5000
    7112.75048     5015.0000      887.3750     1490.8750        0.5000
    7112.99983     5001.0000      884.3750     1454.8750        0.5000
    7113.24919     4999.0000      881.3750     1430.8750        0.5000
    7113.49856     5007.0000      880.3750     1409.8750        0.5000
    7113.74794     5013.0000      879.3750     1390.8750        0.5000
    7114.00194     5004.0000      876.3750     1371.8750        0.5000
    7114.25134     5004.0000      877.3750     1358.8750        0.5000
    7114.50075     4996.0000      877.3750     1341.8750        0.5000
    7114.75017     5000.0000      877.3750     1328.8750        0.5000
    7114.99960     4991.0000      875.3750     1311.8750        0.5000
    7115.24904     4999.0000      876.3750     1301.8750        0.5000
    7115.49849     4998.0000      876.3750     1293.8750        0.5000
    7115.74795     5000.0000      878.3750     1289.8750        0.5000
    7116.00204     4992.0000      878.3750     1282.8750        0.5000
    7116.25152     5010.0000      882.3750     1284.8750        0.5000
    7116.50101     5002.0000      880.3750     1281.8750        0.5000
    7116.75052     4988.0000      878.3750     1273.8750        0.5000
    7117.00003     5011.0000      881.3750     1274.8750        0.5000
    7117.24955     4998.0000      878.3750     1268.8750        0.5000
    7117.49908     5015.0000      880.3750     1264.8750        0.5000
    7117.74862     4981.0000      873.3750     1248.8750        0.5000
    7117.99817     4999.0000      876.3750     1240.8750        0.5000
    7118.24773     4989.0000      873.3750     1220.8750        0.5000
    7118.50193     4994.0000      874.3750     1205.8750        0.5000
    7118.75151     4992.0000      873.3750     1187.8750        0.5000
    7119.00110     4994.0000      873.3750     1166.8750        0.5000
    7119.25070     4989.0000      871.3750     1143.8750        0.5000
    7119.50031     5008.0000      873.3750     1130.8750        0.5000
    7119.74994     4991.0000      870.3750     1103.8750        0.5000
    7119.99957     4979.0000      867.3750     1083.8750        0.5000
    7120.24921     5005.0000      870.3750     1071.8750        0.5000
    7120.49886     4992.0000      866.3750     1049.8750        0.5000
    7120.74853     4994.0000      863.3750     1020.8750        0.5000
    7120.99820     4977.0000      858.3750      995.8750        0.5000
    7121.24788     4990.0000      856.3750      975.8750        0.5000
    7121.50220     4997.0000      853.3750      952.8750        0.5000
    7121.75190     4974.0000      845.3750      926.8750        0.5000
    7122.00161     4987.0000      841.3750      901.8750        0.5000
    7122.25134     4972.0000      832.3750      878.8750        0.5000
    7122.50107     4975.0000      825.3750      862.8750        0.5000
    7122.75082     4976.0000      816.3750      838.8750        0.5000
    7123.00057     4967.0000      805.3750      819.8750        0.5000
    7123.25033     4976.0000      797.3750      802.8750        0.5000
    7123.50011     4953.0000      783.3750      779.8750        0.5000
    7123.74989     4970.0000      775.3750      762.8750        0.5000
    7123.99968     4960.0000      761.3750      741.8750        0.5000
    7124.24949     4962.0000      750.3750      723.8750        0.5000
    7124.49930     4974.0000      744.3750      711.8750        0.5000
    7124.74913     4964.0000      736.3750      699.8750        0.5000
    7124.99896     4956.0000      725.3750      684.8750        0.5000
    7125.24881     4967.0000      719.3750      672.8750        0.5000
    7125.49866     4955.0000      709.3750      659.8750        0.5000
    7125.74852     4950.0000      700.3750      647.8750        0.5000
    7125.99840     4949.0000      691.3750      635.8750        0.5000
    7126.24828     4951.0000      680.3750      620.8750        0.5000
    7126.49818     4927.0000      663.3750      604.8750        0.5000
    7126.74808     4829.0000      637.3750      573.8750        0.5000
    7126.99800     4889.0000      632.3750      560.8750        0.5000
    7127.24792     4921.0000      623.3750      551.8750        0.5000
    7127.49786     4933.0000      612.3750      539.8750        0.5000
    7127.74780     4935.0000      598.3750      522.8750        0.5000
    7127.99776     4940.0000      582.3750      503.8750        0.5000
    7128.24772     4928.0000      566.3750      485.8750        0.5000
    7128.49770     4933.0000      549.3750      466.8750        0.5000
    7128.74769     4931.0000      531.3750      446.8750        0.5000
    7129.00231     4921.0000      516.3750      429.8750        0.5000
    7129.24769     4925.0000      502.3750      412.8750        0.5000
    7129.49770     4933.0000      492.3750      399.8750        0.5000
    7129.74773     4926.0000      481.3750      386.8750        0.5000
    7129.99776     4912.0000      472.3750      374.8750        0.5000
    7130.24781     4924.0000      465.3750      365.8750        0.5000
    7130.49787     4915.0000      460.3750      357.8750        0.5000
    7130.74793     4887.0000      453.3750      352.8750        0.5000
    7130.99801     4814.0000      442.3750      338.8750        0.5000
    7131.24810     4865.0000      443.3750      333.8750        0.5000
    7131.49819     4896.0000      443.3750      334.8750        0.5000
    7131.74830     4896.0000      440.3750      331.8750        0.5000
    7131.99842     4906.0000      440.3750      331.8750        0.5000
    7132.24854     4902.0000      438.3750      329.8750        0.5000
    7132.49868     4904.0000      438.3750      332.8750        0.5000
    7132.74883     4899.0000      437.3750      333.8750        0.5000
    7132.99898     4892.0000      438.3750      336.8750        0.5000
    7133.24915     4896.0000      441.3750      342.8750        0.5000
    7133.49933     4912.0000      446.3750      348.8750        0.5000
    7133.74951     4892.0000      447.3750      353.8750        0.5000
    7133.99971     4901.0000      452.3750      360.8750        0.5000
    7134.24992     4898.0000      454.3750      364.8750        0.5000
    7134.50013     4911.0000      459.3750      372.8750        0.5000
    7134.75036     4909.0000      462.3750      377.8750        0.5000
    7135.00060     4911.0000      467.3750      384.8750        0.5000
    7135.25085     4907.0000      469.3750      389.8750        0.5000
    7135.50110     4902.0000      472.3750      394.8750        0.5000
    7135.75137     4901.0000      474.3750      400.8750        0.5000
    7136.00165     4890.0000      475.3750      403.8750        0.5000
    7136.25194     4905.0000      478.3750      408.8750        0.5000
    7136.50223     4908.0000      481.3750      411.8750        0.5000
    7136.74791     4908.0000      483.3750      413.8750        0.5000
    7136.99822     4897.0000      483.3750      416.8750        0.5000
    7137.24855     4902.0000      485.3750      418.8750        0.5000
    7137.49889     4910.0000      488.3750      421.8750        0.5000
    7137.74924     4890.0000      488.3750      421.8750        0.5000
    7137.99960     4899.0000      490.3750      424.8750        0.5000
    7138.24996     4910.0000      494.3750      425.8750        0.5000
    7138.50034     4907.0000      495.3750      427.8750        0.5000
    7138.75073     4894.0000      496.3750      427.8750        0.5000
    7139.00113     4904.0000      500.3750      428.8750        0.5000
    7139.25154     4905.0000      502.3750      429.8750        0.5000
    7139.50195     4888.0000      502.3750      428.8750        0.5000
    7139.74774     4910.0000      507.3750      431.8750        0.5000
    7139.99818     4910.0000      509.3750      432.8750        0.5000
    7140.24863     4918.0000      512.3750      433.8750        0.5000
    7140.49909     4900.0000      513.3750      432.8750        0.5000
    7140.74956     4898.0000      515.3750      432.8750        0.5000
    7141.00004     4896.0000      517.3750      433.8750        0.5000
    7141.25052     4902.0000      519.3750      434.8750        0.5000
    7141.50102     4896.0000      522.3750      435.8750        0.5000
    7141.75153     4890.0000      523.3750      435.8750        0.5000
    7143.07847     4903.0000      536.3750      444.8750        0.5000
    7144.17827     4892.0000      543.3750      450.8750        0.5000
    7145.29220     4908.0000      551.3750      460.8750        0.5000
    7146.42953     4897.0000      554.3750      463.8750        0.5000
    7147.58565     4891.0000      557.3750      460.8750        0.5000
    7148.75592     4879.0000      559.3750      454.8750        0.5000
    7149.94962     4894.0000      569.3750      453.8750        0.5000
    7151.16214     4889.0000      581.3750      458.8750        0.5000
    7152.39348     4863.0000      593.3750      463.8750        0.5000
    7153.64366     4888.0000      606.3750      470.8750        0.5000
    7154.91268     4889.0000      617.3750      478.8750        0.5000
    7156.20055     4881.0000      623.3750      484.8750        0.5000
    7157.50730     4812.0000      620.3750      479.8750        0.5000
    7158.83292     4883.0000      633.3750      497.8750        0.5000
    7160.18208     4887.0000      636.3750      499.8750        0.5000
    7161.54549     4884.0000      637.3750      502.8750        0.5000
    7162.92782     4891.0000      640.3750      504.8750        0.5000
    7164.32907     4902.0000      642.3750      508.8750        0.5000
    7165.75392     4913.0000      641.3750      511.8750        0.5000
    7167.19306     4917.0000      638.3750      511.8750        0.5000
    7168.65117     4922.0000      634.3750      509.8750        0.5000
    7170.13291     4918.0000      626.3750      505.8750        0.5000
    7171.62898     4918.0000      618.3750      501.8750        0.5000
    7173.52171     4953.0000      612.3005      500.7025        0.5020
    7175.06056     5026.0000      612.0398      505.0987        0.5090
    7176.62310     5081.0000      609.8162      510.5813        0.5150
    7178.20002     5157.0000      611.5928      519.0638        0.5210
    7179.79600     5206.0000      612.3692      528.5462        0.5270
    7181.41573     5299.0000      620.1085      542.9425        0.5340
    7183.04987     5371.0000      626.8850      551.4250        0.5400
    7184.70312     5426.0000      633.6615      557.9075        0.5460
    7186.38015     5502.0000      645.4380      566.3900        0.5520
    7188.07164     5571.0000      657.1772      572.7862        0.5590
    7189.78228     5640.0000      670.9538      574.2687        0.5650
    7191.51676     5710.0000      684.7302      576.7513        0.5710
    7193.26573     5765.0000      696.5068      578.2337        0.5770
    7195.03389     5830.0000      709.2460      580.6300        0.5840
    7196.82126     5908.0000      724.0225      590.1125        0.5900
    7198.62785     5957.0000      733.7990      600.5950        0.5960
    7200.45368     6019.0000      743.5755      619.0775        0.6020
    7202.30344     6106.0000      757.3148      644.4737        0.6090
    7204.16778     6160.0000      766.0912      665.9562        0.6150
    7206.05141     6224.0000      777.8678      689.4388        0.6210
    7207.94966     6282.0000      787.6443      710.9212        0.6270
    7209.87190     6359.0000      799.3835      724.3175        0.6340
    7211.81348     6418.0000      810.1600      722.8000        0.6400
    7213.77441     6461.0000      817.9365      702.2825        0.6460
    7215.75000     6540.0000      829.7130      680.7650        0.6520
    7217.74968     6625.0000      843.4523      659.1612        0.6590
    7219.76875     6670.0000      851.2287      641.6437        0.6650
    7221.80255     6736.0000      863.0053      641.1263        0.6710
    7223.85577     6809.0000      875.7817      655.6087        0.6770
    7225.93315     6875.0000      886.5210      681.0050        0.6840
    7228.02529     6929.0000      897.2975      718.4875        0.6900
    7230.13692     6994.0000      912.0740      761.9700        0.6960
    7232.26805     7049.0000      926.8505      806.4525        0.7020
    7234.41870     7098.0000      939.5897      846.8487        0.7090
    7236.58888     7171.0000      955.3663      883.3312        0.7150
    7238.77392     7252.0000      969.1427      905.8138        0.7210
    7240.98324     7311.0000      979.9193      915.2962        0.7270
    7243.20744     7361.0000      987.6585      913.6925        0.7340
    7245.45596     7421.0000      994.4350      910.1750        0.7400
    7247.71940     7481.0000     1000.2115      902.6575        0.7460
    7250.00248     7532.0000     1003.9880      899.1400        0.7520
    7252.30524     7613.0000     1011.7273      904.5362        0.7590
    7254.62768     7670.0000     1016.5037      914.0187        0.7650
    7256.96510     7716.0000     1021.2803      926.5013        0.7710
    7259.32696     7752.0000     1025.0567      931.9837        0.7770
    7261.70385     7833.0000     1034.7960      937.3800        0.7840
    7264.10049     7903.0000     1043.5725      935.8625        0.7900
    7266.52165     7951.0000     1047.3490      934.3450        0.7960
    7268.95315     8015.0000     1055.1255      935.8275        0.8020
    7271.40919     8104.0000     1067.8647      938.2237        0.8090
    7273.88508     8144.0000     1075.6412      932.7062        0.8150
    7276.37610     8220.0000     1088.4178      932.1888        0.8210
    7278.89173     8275.0000     1101.1943      933.6712        0.8270
    7281.42253     8339.0000     1114.9335      943.0675        0.8340
    7283.97324     8392.0000     1130.7100      947.5500        0.8400
    7286.53916     8456.0000     1148.4865      954.0325        0.8460
    7289.12978     8526.0000     1168.2630      962.5150        0.8520
    7291.73563     8597.0000     1187.0023      975.9112        0.8590
    7294.36149     8686.0000     1207.7787     1005.3937        0.8650
    7297.00737     8750.0000     1224.5552     1041.8763        0.8710
    7299.67329     8804.0000     1238.3318     1084.3588        0.8770
    7302.35453     8881.0000     1255.0710     1125.7550        0.8840
    7305.05585     8947.0000     1267.8475     1160.2375        0.8900
    7307.78204     9006.0000     1278.6240     1188.7200        0.8960
    7310.51884     9085.0000     1290.4005     1210.2025        0.9020
    7313.28055     9151.0000     1300.1398     1223.5988        0.9090
    7316.05767     9242.0000     1311.9162     1236.0812        0.9150
    7318.85498     9306.0000     1321.6927     1246.5638        0.9210
    7321.67251     9365.0000     1331.4693     1260.0463        0.9270
    7324.51027     9456.0000     1348.2085     1277.4425        0.9340
    7327.36352     9511.0000     1360.9850     1292.9250        0.9400
    7330.23705     9588.0000     1376.7615     1310.4075        0.9460
    7333.13088     9650.0000     1391.5380     1327.8900        0.9520
    7336.04504     9723.0000     1406.2773     1354.2863        0.9590
    7338.97477     9774.0000     1420.0538     1373.7687        0.9650
    7341.92487     9843.0000     1436.8302     1390.2513        0.9710
    7344.89536     9902.0000     1452.6067     1394.7338        0.9770
    7347.88147     9995.0000     1473.3460     1396.1300        0.9840
    7350.88803    10021.0000     1483.1225     1382.6125        0.9900
    7353.91504    10082.0000     1496.8990     1376.0950        0.9960
    7356.96253    10156.0000     1511.6755     1371.5775        1.0020
    7360.02574    10218.0000     1523.4147     1368.9738        1.0090
    7363.10948    10252.0000     1533.1913     1366.4562        1.0150
    7366.21377    10316.0000     1547.9678     1376.9388        1.0210
    7369.33383    10361.0000     1560.7442     1392.4213        1.0270
    7372.47449    10430.0000     1577.4835     1419.8175        1.0340
    7375.63577    10508.0000     1593.2600     1459.3000        1.0400
    7378.81289    10560.0000     1605.0365     1509.7825        1.0460
    7382.01068    10633.0000     1618.8130     1562.2650        1.0520
    7385.22916    10719.0000     1634.5522     1612.6613        1.0590
    7388.46354    10790.0000     1647.3287     1642.1437        1.0650
    7391.71866    10872.0000     1663.1053     1662.6263        1.0710
    7394.99454    10929.0000     1674.8818     1670.1088        1.0770
    7398.28639    10991.0000     1689.6210     1676.5050        1.0840
    7401.59905    11044.0000     1704.3975     1687.9875        1.0900
    7404.93254    11114.0000     1722.1740     1707.4700        1.0960
    7408.28207    11178.0000     1738.9505     1726.9525        1.1020
    7411.65248    11254.0000     1757.6898     1747.3488        1.1090
    7415.03896    11314.0000     1776.4662     1764.8312        1.1150
    7418.44638    11383.0000     1796.2427     1786.3138        1.1210
    7421.87475    11436.0000     1814.0193     1807.7963        1.1270
    7425.31926    11525.0000     1836.7585     1840.1925        1.1340
    7428.78478    11604.0000     1858.5350     1874.6750        1.1400
    7432.26648    11656.0000     1875.3115     1899.1575        1.1460
    7435.76924    11740.0000     1897.0880     1923.6400        1.1520
    7439.29307    11817.0000     1916.8273     1940.0363        1.1590
    7442.83316    11880.0000     1934.6037     1947.5187        1.1650
    7446.38952    11930.0000     1949.3802     1948.0013        1.1710
    7449.97189    11979.0000     1964.1568     1946.4838        1.1770
    7453.57058    11999.0000     1975.8960     1952.8800        1.1840
    7457.18562    12219.0000     2018.6725     1995.3625        1.1900
    7460.82188    12201.0000     2020.4490     2003.8450        1.1960
    7464.47453    11111.0000     1846.2255     1956.3275        1.2020
    7468.14845    12382.0000     2059.9648     2065.7238        1.2090
    7471.84368    12419.0000     2071.7413     2095.2063        1.2150
    7475.55537    12467.0000     2084.5177     2127.6887        1.2210
    7479.28841    12507.0000     2097.2942     2154.1712        1.2270
    7483.03795    12548.0000     2111.0335     2184.5675        1.2340
    7486.80890    11601.0000     1960.8100     2047.0500        1.2400
    7490.59640    12734.0000     2161.5865     2269.5325        1.2460
    7494.40535    12757.0000     2176.3630     2297.0150        1.2520
    7498.23090    12809.0000     2194.1022     2320.4113        1.2590
    7502.07307    12853.0000     2210.8787     2335.8938        1.2650
    7505.94166    12888.0000     2224.6552     2348.3762        1.2710
    7509.82202    12079.0000     2093.4318     2389.8587        1.2770
    7513.72396    13080.0000     2276.1710     2405.2550        1.2840
    7517.64752    13104.0000     2289.9475     2425.7375        1.2900
    7521.58780    11809.0000     2073.7240     2283.2200        1.2960
    7525.54975    13331.0000     2347.5005     2498.7025        1.3020
    7529.52848    13381.0000     2365.2398     2521.0988        1.3090
    7533.52402    13439.0000     2384.0163     2543.5813        1.3150
    7537.54129    13499.0000     2403.7928     2567.0637        1.3210
    7541.58034    13565.0000     2423.5693     2594.5462        1.3270
    7545.63625    13640.0000     2443.3085     2625.9425        1.3340
    7549.70907    13700.0000     2463.0850     2654.4250        1.3400
    7553.80373    13758.0000     2482.8615     2681.9075        1.3460
    7557.91534    13823.0000     2502.6380     2701.3900        1.3520
    7562.04392    13896.0000     2525.3773     2721.7863        1.3590
    7566.19441    13968.0000     2549.1537     2748.2688        1.3650
    7570.36686    14034.0000     2571.9302     2779.7512        1.3710
    7574.55141    14106.0000     2595.7067     2819.2337        1.3770
    7578.76290    14167.0000     2618.4460     2863.6300        1.3840
    7582.98655    14231.0000     2643.2225     2913.1125        1.3900
    7587.23224    14285.0000     2665.9990     2954.5950        1.3960
    7591.50002    14354.0000     2689.7755     2993.0775        1.4020
    7595.78001    14435.0000     2715.5147     3029.4738        1.4090
    7600.08213    14488.0000     2738.2913     3056.9563        1.4150
    7604.40642    14548.0000     2759.0678     3085.4387        1.4210
    7608.74793    14604.0000     2780.8443     3119.9212        1.4270
    7613.10670    14662.0000     2802.5835     3156.3175        1.4340
    7617.48772    14716.0000     2824.3600     3190.8000        1.4400
    7621.88604    14774.0000     2846.1365     3217.2825        1.4460
    7626.30168    14817.0000     2864.9130     3243.7650        1.4520
    7630.73965    14877.0000     2887.6523     3273.1613        1.4590
    7635.19499    14932.0000     2908.4288     3306.6438        1.4650
    7639.66773    14968.0000     2925.2052     3343.1262        1.4710
    7644.15790    15025.0000     2945.9817     3378.6087        1.4770
    7648.67049    15096.0000     2969.7210     3419.0050        1.4840
    7653.20553    15160.0000     2992.4975     3454.4875        1.4900
    7657.75309    15225.0000     3017.2740     3490.9700        1.4960
    7662.32315    15294.0000     3042.0505     3527.4525        1.5020
    7666.91076    15369.0000     3068.7897     3566.8488        1.5090
    7671.52093    15428.0000     3094.5662     3605.3313        1.5150
    7676.14869    15512.0000     3126.3427     3643.8137        1.5210
    7680.79407    15586.0000     3154.1193     3684.2962        1.5270
    7685.45710    15674.0000     3184.8585     3725.6925        1.5340
    7690.14279    15755.0000     3214.6350     3774.1750        1.5400
    7694.84617    15837.0000     3244.4115     3823.6575        1.5460
    7699.56726    15885.0000     3269.1880     3867.1400        1.5520
    7704.30609    15951.0000     3297.9273     3912.5363        1.5590
    7709.06770    15986.0000     3320.7038     3947.0188        1.5650
    7713.84709    16023.0000     3342.4803     3986.5012        1.5710
    7718.64429    16072.0000     3366.2568     4027.9837        1.5770
    7723.45932    16134.0000     3393.9960     4068.3800        1.5840
    7728.29724    16174.0000     3414.7725     4101.8625        1.5900
    7733.15304    16223.0000     3439.5490     4135.3450        1.5960
    7738.02675    16275.0000     3463.3255     4167.8275        1.6020
    7742.91839    16317.0000     3485.0648     4204.2238        1.6090
    7747.83302    16364.0000     3509.8412     4238.7063        1.6150
    7752.76563    16410.0000     3533.6177     4276.1888        1.6210
    7757.71624    16462.0000     3558.3942     4313.6713        1.6270
    7762.68488    16529.0000     3587.1335     4361.0675        1.6340
    7767.67157    16581.0000     3611.9100     4407.5500        1.6400
    7772.68139    16636.0000     3638.6865     4457.0325        1.6460
    7777.70425    16698.0000     3665.4630     4501.5150        1.6520
    7782.75029    16752.0000     3692.2022     4546.9113        1.6590
    7787.81954    16799.0000     3716.9788     4588.3938        1.6650
    7792.90190    16849.0000     3744.7553     4638.8763        1.6710
    7798.00245    16903.0000     3771.5318     4683.3588        1.6770
    7803.12629    16982.0000     3806.2710     4740.7550        1.6840
    7808.26838    17033.0000     3834.0475     4788.2375        1.6900
    7813.42874    17091.0000     3863.8240     4836.7200        1.6960
    7818.60738    17158.0000     3896.6005     4886.2025        1.7020
    7823.80435    17233.0000     3930.3398     4941.5988        1.7090
    7829.01964    17295.0000     3962.1163     4993.0813        1.7150
    7834.25840    17362.0000     3993.8927     5040.5638        1.7210
    7839.51554    17417.0000     4023.6692     5096.0463        1.7270
    7844.78599    17481.0000     4056.4085     5145.4425        1.7340
    7850.07998    17549.0000     4089.1850     5196.9250        1.7400
    7855.39243    17598.0000     4117.9615     5245.4075        1.7460
    7860.72336    17505.0000     4112.7380     5198.8900        1.7520
    7866.07279    17693.0000     4173.4772     5333.2863        1.7590
    7871.44587    17742.0000     4201.2537     5384.7688        1.7650
    7876.83239    17769.0000     4223.0302     5428.2513        1.7710
    7882.24260    17823.0000     4253.8067     5483.7338        1.7770
    7887.66629    17894.0000     4288.5460     5539.1300        1.7840
    7893.11374    17956.0000     4321.3225     5599.6125        1.7900
    7898.57983    18011.0000     4352.0990     5651.0950        1.7960
    7904.06460    18041.0000     4377.8755     5698.5775        1.8020
    7909.56807    18118.0000     4414.6147     5756.9738        1.8090
    7915.08511    18160.0000     4443.3912     5809.4563        1.8150
    7920.62604    18220.0000     4475.1677     5870.9388        1.8210
    7926.19088    18246.0000     4500.9442     5920.4213        1.8270
    7931.76937    18291.0000     4531.6835     5967.8175        1.8340
    7937.36667    18337.0000     4564.4600     6022.3000        1.8400
    7942.98282    18405.0000     4600.2365     6086.7825        1.8460
    7948.61782    18469.0000     4638.0130     6145.2650        1.8520
    7954.27686    18531.0000     4672.7522     6205.6613        1.8590
    7959.94966    18587.0000     4706.5288     6265.1438        1.8650
    7965.64138    18651.0000     4744.3053     6326.6263        1.8710
    7971.35723    18700.0000     4776.0818     6378.1088        1.8770
